y (m), ux (m/s)
0.000000000000000000e+00,-1.294154606059664234e-17
1.005025125628140805e-03,3.977607532404437568e-02
2.010050251256281610e-03,7.877808449243155209e-02
3.015075376884422415e-03,1.170060275051614529e-01
4.020100502512563220e-03,1.544599043622340018e-01
5.025125628140704459e-03,1.911397150636494069e-01
6.030150753768844830e-03,2.270454596094074184e-01
7.035175879396985202e-03,2.621771379995083140e-01
8.040201005025126441e-03,2.965347502339517050e-01
9.045226130653267679e-03,3.301293809885753050e-01
1.005025125628140892e-02,3.630126809538815058e-01
1.105527638190954842e-02,3.951900175007641014e-01
1.206030150753768966e-02,4.266613906292235914e-01
1.306532663316583090e-02,4.574268003392596982e-01
1.407035175879397040e-02,4.874862466308721998e-01
1.507537688442211164e-02,5.168397295040614292e-01
1.608040201005025288e-02,5.454872489588272755e-01
1.708542713567839239e-02,5.734307093216438611e-01
1.809045226130653536e-02,6.007187571050628394e-01
1.909547738693467486e-02,6.273684435151816174e-01
2.010050251256281784e-02,6.533797685520003062e-01
2.110552763819095734e-02,6.787527322155187948e-01
2.211055276381909684e-02,7.034873345057369720e-01
2.311557788944723982e-02,7.275835754226551710e-01
2.412060301507537932e-02,7.510414549662727257e-01
2.512562814070351883e-02,7.738601198748514820e-01
2.613065326633166180e-02,7.960719482701287264e-01
2.713567839195980130e-02,8.177120778559654468e-01
2.814070351758794081e-02,8.387805086323626425e-01
2.914572864321608378e-02,8.592772405993199802e-01
3.015075376884422328e-02,8.792022737568374602e-01
3.115577889447236626e-02,8.985556081049151933e-01
3.216080402010050576e-02,9.173372436435528465e-01
3.316582914572864527e-02,9.355471803727507529e-01
3.417085427135678477e-02,9.532007338791810280e-01
3.517587939698493121e-02,9.703494892387052317e-01
3.618090452261307072e-02,9.869961867471893635e-01
3.718592964824121022e-02,1.003140826404633090e+00
3.819095477386934973e-02,1.018783408211036301e+00
3.919597989949748923e-02,1.033923932166399329e+00
4.020100502512563567e-02,1.048562398270722396e+00
4.120603015075377518e-02,1.062698806524005057e+00
4.221105527638191468e-02,1.076332999540002611e+00
4.321608040201005418e-02,1.089513194582728994e+00
4.422110552763819369e-02,1.102253852488893848e+00
4.522613065326633319e-02,1.114554973258498061e+00
4.623115577889447964e-02,1.126416556891541854e+00
4.723618090452261914e-02,1.137838603388024117e+00
4.824120603015075864e-02,1.148821112747945739e+00
4.924623115577889815e-02,1.159364084971306719e+00
5.025125628140703765e-02,1.169468427099815910e+00
5.125628140703518409e-02,1.179185222424808499e+00
5.226130653266332360e-02,1.188541311345908902e+00
5.326633165829146310e-02,1.197536693863116453e+00
5.427135678391960261e-02,1.206171369976432040e+00
5.527638190954774211e-02,1.214445339685855441e+00
5.628140703517588161e-02,1.222358602991385990e+00
5.728643216080402806e-02,1.229911159893024575e+00
5.829145728643216756e-02,1.237103010390770530e+00
5.929648241206030707e-02,1.243914141481288871e+00
6.030150753768844657e-02,1.250408531659586098e+00
6.130653266331658607e-02,1.256588005005652153e+00
6.231155778894473252e-02,1.262452561519487038e+00
6.331658291457287202e-02,1.268002201201090529e+00
6.432160804020101152e-02,1.273236924050462626e+00
6.532663316582915103e-02,1.278156730067603553e+00
6.633165829145729053e-02,1.282761619252512864e+00
6.733668341708543004e-02,1.287094149763704065e+00
6.834170854271356954e-02,1.291220938401539620e+00
6.934673366834170904e-02,1.295138285262686262e+00
7.035175879396986243e-02,1.298846190347144658e+00
7.135678391959800193e-02,1.302344653654914364e+00
7.236180904522614143e-02,1.305633675185996045e+00
7.336683417085428094e-02,1.308713254940388371e+00
7.437185929648242044e-02,1.311583392918092894e+00
7.537688442211055995e-02,1.314193550455768245e+00
7.638190954773869945e-02,1.316525445209810075e+00
7.738693467336683895e-02,1.318670312876069728e+00
7.839195979899497846e-02,1.320628153454548315e+00
7.939698492462311796e-02,1.322398966945244281e+00
8.040201005025127134e-02,1.323982753348158514e+00
8.140703517587941085e-02,1.325379512663291459e+00
8.241206030150755035e-02,1.326589244890641117e+00
8.341708542713568986e-02,1.327618810871286525e+00
8.442211055276382936e-02,1.328595941914325618e+00
8.542713567839196886e-02,1.329495195835735721e+00
8.643216080402010837e-02,1.330316572635518391e+00
8.743718592964824787e-02,1.331060072313672515e+00
8.844221105527638738e-02,1.331725694870198318e+00
8.944723618090452688e-02,1.332313440305095797e+00
9.045226130653266639e-02,1.332823308618365177e+00
9.145728643216081977e-02,1.333255299810005567e+00
9.246231155778895927e-02,1.333485694785835562e+00
9.346733668341709877e-02,1.333649946453935309e+00
9.447236180904523828e-02,1.333785762641629624e+00
9.547738693467337778e-02,1.333893143348918064e+00
9.648241206030151729e-02,1.333972088575800852e+00
9.748743718592965679e-02,1.334022598322277764e+00
9.849246231155779630e-02,1.334044672588349023e+00
9.949748743718593580e-02,1.334038311374014629e+00
1.005025125628140753e-01,1.334042068638108924e+00
1.015075376884422148e-01,1.334050777288132039e+00
1.025125628140703682e-01,1.334024161001083453e+00
1.035175879396985077e-01,1.333962219776963609e+00
1.045226130653266472e-01,1.333864953615772064e+00
1.055276381909547867e-01,1.333732362517509262e+00
1.065326633165829262e-01,1.333564446482174981e+00
1.075376884422110657e-01,1.333361205509768777e+00
1.085427135678392052e-01,1.333029927017453042e+00
1.095477386934673447e-01,1.332313177391321268e+00
1.105527638190954842e-01,1.331564680678669399e+00
1.115577889447236237e-01,1.330784436879497212e+00
1.125628140703517632e-01,1.329972445993805374e+00
1.135678391959799166e-01,1.329128708021593663e+00
1.145728643216080561e-01,1.328253222962861635e+00
1.155778894472361956e-01,1.327345990817610177e+00
1.165829145728643351e-01,1.326407011585838180e+00
1.175879396984924746e-01,1.325531411212488297e+00
1.185929648241206141e-01,1.324458140216181468e+00
1.195979899497487536e-01,1.323170960725063683e+00
1.206030150753768931e-01,1.321669872739134055e+00
1.216080402010050326e-01,1.319954876258392362e+00
1.226130653266331721e-01,1.318025971282839715e+00
1.236180904522613255e-01,1.315883157812475446e+00
1.246231155778894650e-01,1.313526435847299334e+00
1.256281407035176045e-01,1.310762398313989330e+00
1.266331658291457440e-01,1.307701918049568812e+00
1.276381909547738835e-01,1.304468772376730312e+00
1.286432160804020230e-01,1.301062961295473830e+00
1.296482412060301626e-01,1.297484484805799809e+00
1.306532663316583021e-01,1.293733342907707140e+00
1.316582914572864416e-01,1.289809535601196933e+00
1.326633165829145811e-01,1.285713062886268743e+00
1.336683417085427206e-01,1.281462053014334801e+00
1.346733668341708601e-01,1.276967797730277576e+00
1.356783919597989996e-01,1.272140622278006283e+00
1.366834170854271391e-01,1.266980526657520256e+00
1.376884422110552786e-01,1.261487510868820605e+00
1.386934673366834181e-01,1.255661574911906886e+00
1.396984924623115853e-01,1.249502718786778432e+00
1.407035175879397249e-01,1.243010942493436133e+00
1.417085427135678644e-01,1.236183299990568418e+00
1.427135678391960039e-01,1.228945464968386636e+00
1.437185929648241434e-01,1.221356444048198764e+00
1.447236180904522829e-01,1.213416237230005468e+00
1.457286432160804224e-01,1.205124844513806526e+00
1.467336683417085619e-01,1.196482265899601716e+00
1.477386934673367014e-01,1.187488501387391926e+00
1.487437185929648409e-01,1.178143550977176268e+00
1.497487437185929804e-01,1.168447414668954965e+00
1.507537688442211199e-01,1.158376015515900859e+00
1.517587939698492594e-01,1.147865050583354085e+00
1.527638190954773989e-01,1.136911066344179710e+00
1.537688442211055384e-01,1.125514062798378179e+00
1.547738693467336779e-01,1.113674039945948824e+00
1.557788944723618174e-01,1.101390997786891868e+00
1.567839195979899569e-01,1.088664936321207310e+00
1.577889447236180964e-01,1.075495855548895596e+00
1.587939698492462359e-01,1.061868363149179650e+00
1.597989949748743754e-01,1.047737880345857464e+00
1.608040201005025427e-01,1.033107079713724952e+00
1.618090452261306822e-01,1.017975961252781891e+00
1.628140703517588217e-01,1.002344524963028505e+00
1.638190954773869612e-01,9.862127708444649032e-01
1.648241206030151007e-01,9.695806988970905316e-01
1.658291457286432402e-01,9.524483091209061669e-01
1.668341708542713797e-01,9.348130487427721569e-01
1.678391959798995192e-01,9.166229313858056393e-01
1.688442211055276587e-01,8.978608814268964622e-01
1.698492462311557982e-01,8.785268988660451805e-01
1.708542713567839377e-01,8.586209837032512393e-01
1.718592964824120772e-01,8.381431359385148605e-01
1.728643216080402167e-01,8.170933555718362662e-01
1.738693467336683562e-01,7.954716426032150123e-01
1.748743718592964957e-01,7.732779970326510988e-01
1.758793969849246352e-01,7.504771142983411858e-01
1.768844221105527748e-01,7.270375022095441064e-01
1.778894472361809143e-01,7.029600873921753035e-01
1.788944723618090538e-01,6.782448698462347769e-01
1.798994974874371933e-01,6.528918495717221937e-01
1.809045226130653328e-01,6.269010265686377759e-01
1.819095477386934723e-01,6.002724008369814124e-01
1.829145728643216395e-01,5.730059723767526592e-01
1.839195979899497790e-01,5.450847486171189749e-01
1.849246231155779185e-01,5.164598542562031103e-01
1.859296482412060580e-01,4.871292872861474055e-01
1.869346733668341975e-01,4.570930477069518050e-01
1.879396984924623371e-01,4.263511355186163088e-01
1.889447236180904766e-01,3.949035507211408613e-01
1.899497487437186161e-01,3.627502933145254072e-01
1.909547738693467556e-01,3.298913632987701683e-01
1.919597989949748951e-01,2.963213817211177714e-01
1.929648241206030346e-01,2.619887968357710317e-01
1.939698492462311741e-01,2.268826154276264162e-01
1.949748743718593136e-01,1.910028374966837861e-01
1.959798994974874531e-01,1.543494630429431413e-01
1.969849246231155926e-01,1.169224920664046347e-01
1.979899497487437321e-01,7.872192456706809949e-02
1.989949748743718716e-01,3.974776054493356359e-02
2.000000000000000111e-01,1.116148291552619975e-15
